---Stopping/Range Input Data (Number-format: Period = Decimal Point) 
---Output File Name                                                  
"sr.out"
---Ion(Z), Ion Mass(u)                                               
2   3.016
---Target Data: (Solid=0,Gas=1), Density(g/cm3), Compound Corr.      
0    1.80    0
---Number of Target Elements                                         
1
---Target Elements: (Z), Target name, Stoich, Target Mass(u)         
 4                 "Beryllium" 100              9.012
---Output Stopping Units (1-8)                                       
7
---Ion Energy : E-Min(keV), E-Max(keV)                               
0 0
   12452.50    
   12453.15    
   12453.81    
   12454.46    
   12455.12    
   12455.77    
   12456.43    
   12457.08    
   12457.74    
   12458.39    
   12459.05    
   12459.70    
   12460.36    
   12461.01    
   12461.67    
   12462.33    
   12462.98    
   12463.64    
   12464.29    
   12464.95    
   12465.60    
   12466.26    
   12466.91    
   12467.57    
   12468.22    
   12468.88    
   12469.53    
   12470.19    
   12470.84    
   12471.50    
   12472.16    
   12472.81    
   12473.47    
   12474.12    
   12474.78    
   12475.43    
   12476.09    
   12476.74    
   12477.40    
   12478.05    
   12478.71    
   12479.37    
   12480.02    
   12480.68    
   12481.33    
   12481.99    
   12482.64    
   12483.30    
   12483.95    
   12484.61    
   12485.26    
   12485.92    
   12486.57    
   12487.23    
   12487.88    
   12488.54    
   12489.20    
   12489.85    
   12490.51    
   12491.16    
   12491.82    
   12492.47    
   12493.13    
   12493.78    
   12494.44    
   12495.09    
   12495.75    
   12496.40    
   12497.06    
   12497.71    
   12498.37    
   12499.03    
   12499.68    
   12500.34    
   12500.99    
   12501.65    
   12502.30    
   12502.96    
   12503.61    
   12504.27    
   12504.92    
   12505.58    
   12506.23    
   12506.89    
   12507.54    
   12508.20    
   12508.86    
   12509.51    
   12510.17    
   12510.82    
   12511.48    
   12512.13    
   12512.79    
   12513.44    
   12514.10    
   12514.75    
   12515.41    
   12516.07    
   12516.72    
   12517.38    
   12518.03    
   12518.69    
   12519.34    
   12520.00    
   12520.65    
   12521.31    
   12521.96    
   12522.62    
   12523.27    
   12523.93    
   12524.58    
   12525.24    
   12525.90    
   12526.55    
   12527.21    
   12527.86    
   12528.52    
   12529.17    
   12529.83    
   12530.48    
   12531.14    
   12531.79    
   12532.45    
   12533.10    
   12533.76    
   12534.42    
   12535.07    
   12535.73    
   12536.38    
   12537.04    
   12537.69    
   12538.35    
   12539.00    
   12539.66    
   12540.31    
   12540.97    
   12541.62    
   12542.28    
   12542.93    
   12543.59    
   12544.25    
   12544.90    
   12545.56    
   12546.21    
   12546.87    
   12547.52    
   12548.18    
   12548.83    
   12549.49    
   12550.14    
   12550.80    
   12551.45    
   12552.11    
   12552.76    
   12553.42    
   12554.08    
   12554.73    
   12555.39    
   12556.04    
   12556.70    
   12557.35    
   12558.01    
   12558.66    
   12559.32    
   12559.97    
   12560.63    
   12561.29    
   12561.94    
   12562.60    
   12563.25    
   12563.91    
   12564.56    
   12565.22    
   12565.87    
   12566.53    
   12567.18    
   12567.84    
   12568.49    
   12569.15    
   12569.80    
   12570.46    
   12571.12    
   12571.77    
   12572.43    
   12573.08    
   12573.74    
   12574.39    
   12575.05    
   12575.70    
   12576.36    
   12577.01    
   12577.67    
   12578.32    
   12578.98    
   12579.63    
   12580.29    
   12580.95    
   12581.60    
   12582.26    
   12582.91    
   12583.57    
   12584.22    
   12584.88    
   12585.53    
   12586.19    
   12586.84    
   12587.50    
   12588.15    
   12588.81    
   12589.46    
   12590.12    
   12590.78    
   12591.43    
   12592.09    
   12592.74    
   12593.40    
   12594.05    
   12594.71    
   12595.36    
   12596.02    
   12596.67    
   12597.33    
   12597.99    
   12598.64    
   12599.30    
   12599.95    
   12600.61    
   12601.26    
   12601.92    
   12602.57    
   12603.23    
   12603.88    
   12604.54    
   12605.19    
   12605.85    
   12606.50    
   12607.16    
   12607.82    
   12608.47    
   12609.13    
   12609.78    
   12610.44    
   12611.09    
   12611.75    
   12612.40    
   12613.06    
   12613.71    
   12614.37    
   12615.02    
   12615.68    
   12616.33    
   12616.99    
   12617.65    
   12618.30    
   12618.96    
   12619.61    
   12620.27    
   12620.92    
   12621.58    
   12622.23    
   12622.89    
   12623.54    
   12624.20    
   12624.85    
   12625.51    
   12626.17    
   12626.82    
   12627.48    
   12628.13    
   12628.79    
   12629.44    
   12630.10    
   12630.75    
   12631.41    
   12632.06    
   12632.72    
   12633.37    
   12634.03    
   12634.69    
   12635.34    
   12636.00    
   12636.65    
   12637.31    
   12637.96    
   12638.62    
   12639.27    
   12639.93    
   12640.58    
   12641.24    
   12641.89    
   12642.55    
   12643.21    
   12643.86    
   12644.52    
   12645.17    
   12645.83    
   12646.48    
   12647.14    
   12647.79    
   12648.45    
   12649.10    
   12649.76    
   12650.41    
   12651.07    
   12651.72    
   12652.38    
   12653.04    
   12653.69    
   12654.35    
   12655.00    
   12655.66    
   12656.31    
   12656.97    
   12657.62    
   12658.28    
   12658.93    
   12659.59    
   12660.24    
   12660.90    
   12661.55    
   12662.21    
   12662.87    
   12663.52    
   12664.18    
   12664.83    
   12665.49    
   12666.14    
   12666.80    
   12667.45    
   12668.11    
   12668.76    
   12669.42    
   12670.07    
   12670.73    
   12671.39    
   12672.04    
   12672.70    
   12673.35    
   12674.01    
   12674.66    
   12675.32    
   12675.97    
   12676.63    
   12677.28    
   12677.94    
   12678.59    
   12679.25    
   12679.91    
   12680.56    
   12681.22    
   12681.87    
   12682.53    
   12683.18    
   12683.84    
   12684.49    
   12685.15    
   12685.80    
   12686.46    
   12687.11    
   12687.77    
   12688.42    
   12689.08    
   12689.74    
   12690.39    
   12691.05    
   12691.70    
   12692.36    
   12693.01    
   12693.67    
   12694.32    
   12694.98    
   12695.63    
   12696.29    
   12696.94    
   12697.60    
   12698.25    
   12698.91    
   12699.57    
   12700.22    
   12700.88    
   12701.53    
   12702.19    
   12702.84    
   12703.50    
   12704.15    
   12704.81    
   12705.46    
   12706.12    
   12706.77    
   12707.43    
   12708.08    
   12708.74    
   12709.40    
   12710.05    
   12710.71    
   12711.36    
   12712.02    
   12712.67    
   12713.33    
   12713.98    
   12714.64    
   12715.29    
   12715.95    
   12716.61    
   12717.26    
   12717.92    
   12718.57    
   12719.23    
   12719.88    
   12720.54    
   12721.19    
   12721.85    
   12722.50    
   12723.16    
   12723.81    
   12724.47    
   12725.12    
   12725.78    
   12726.44    
   12727.09    
   12727.75    
   12728.40    
   12729.06    
   12729.71    
   12730.37    
   12731.02    
   12731.68    
   12732.33    
   12732.99    
   12733.64    
   12734.30    
   12734.96    
   12735.61    
   12736.27    
   12736.92    
   12737.58    
   12738.23    
   12738.89    
   12739.54    
   12740.20    
   12740.85    
   12741.51    
   12742.16    
   12742.82    
   12743.47    
   12744.13    
   12744.79    
   12745.44    
   12746.10    
   12746.75    
   12747.41    
   12748.06    
   12748.72    
   12749.37    
   12750.03    
   12750.68    
   12751.34    
   12751.99    
   12752.65    
   12753.31    
   12753.96    
   12754.62    
   12755.27    
   12755.93    
   12756.58    
   12757.24    
   12757.89    
   12758.55    
   12759.20    
   12759.86    
   12760.51    
   12761.17    
   12761.83    
   12762.48    
   12763.14    
   12763.79    
   12764.45    
   12765.10    
   12765.76    
   12766.41    
   12767.07    
   12767.72    
   12768.38    
   12769.03    
   12769.69    
   12770.34    
   12771.00    
   12771.66    
   12772.31    
   12772.97    
   12773.62    
   12774.28    
   12774.93    
   12775.59    
   12776.24    
   12776.90    
   12777.55    
   12778.21    
   12778.86    
   12779.52    
   12780.17    
   12780.83    
   12781.49    
   12782.14    
   12782.80    
   12783.45    
   12784.11    
   12784.76    
   12785.42    
   12786.07    
   12786.73    
   12787.38    
   12788.04    
   12788.69    
   12789.35    
   12790.01    
   12790.66    
   12791.32    
   12791.97    
   12792.63    
   12793.28    
   12793.94    
   12794.59    
   12795.25    
   12795.90    
   12796.56    
   12797.21    
   12797.87    
   12798.53    
   12799.18    
   12799.84    
   12800.49    
   12801.15    
   12801.80    
   12802.46    
   12803.11    
   12803.77    
   12804.42    
   12805.08    
   12805.73    
   12806.39    
   12807.04    
   12807.70    
   12808.36    
   12809.01    
   12809.67    
   12810.32    
   12810.98    
   12811.63    
   12812.29    
   12812.94    
   12813.60    
   12814.25    
   12814.91    
   12815.56    
   12816.22    
   12816.88    
   12817.53    
   12818.19    
   12818.84    
   12819.50    
   12820.15    
   12820.81    
   12821.46    
   12822.12    
   12822.77    
   12823.43    
   12824.08    
   12824.74    
   12825.39    
   12826.05    
   12826.71    
   12827.36    
   12828.02    
   12828.67    
   12829.33    
   12829.98    
   12830.64    
   12831.29    
   12831.95    
   12832.60    
   12833.26    
   12833.92    
   12834.57    
   12835.23    
   12835.88    
   12836.54    
   12837.19    
   12837.85    
   12838.50    
   12839.16    
   12839.81    
   12840.47    
   12841.12    
   12841.78    
   12842.43    
   12843.09    
   12843.75    
   12844.40    
   12845.06    
   12845.71    
   12846.37    
   12847.02    
   12847.68    
   12848.33    
   12848.99    
   12849.64    
   12850.30    
   12850.95    
   12851.61    
   12852.26    
   12852.92    
   12853.58    
   12854.23    
   12854.89    
   12855.54    
   12856.20    
   12856.85    
   12857.51    
   12858.16    
   12858.82    
   12859.47    
   12860.13    
   12860.78    
   12861.44    
   12862.09    
   12862.75    
   12863.41    
   12864.06    
   12864.72    
   12865.37    
   12866.03    
   12866.68    
   12867.34    
   12867.99    
   12868.65    
   12869.30    
   12869.96    
   12870.61    
   12871.27    
   12871.93    
   12872.58    
   12873.24    
   12873.89    
   12874.55    
   12875.20    
   12875.86    
   12876.51    
   12877.17    
   12877.82    
   12878.48    
   12879.13    
   12879.79    
   12880.45    
   12881.10    
   12881.76    
   12882.41    
   12883.07    
   12883.72    
   12884.38    
   12885.03    
   12885.69    
   12886.34    
   12887.00    
   12887.65    
   12888.31    
   12888.96    
   12889.62    
   12890.28    
   12890.93    
   12891.59    
   12892.24    
   12892.90    
   12893.55    
   12894.21    
   12894.86    
   12895.52    
   12896.17    
   12896.83    
   12897.48    
   12898.14    
   12898.79    
   12899.45    
   12900.11    
   12900.76    
   12901.42    
   12902.07    
   12902.73    
   12903.38    
   12904.04    
   12904.69    
   12905.35    
   12906.00    
   12906.66    
   12907.31    
   12907.97    
   12908.63    
   12909.28    
   12909.94    
   12910.59    
   12911.25    
   12911.90    
   12912.56    
   12913.21    
   12913.87    
   12914.52    
   12915.18    
   12915.83    
   12916.49    
   12917.15    
   12917.80    
   12918.46    
   12919.11    
   12919.77    
   12920.42    
   12921.08    
   12921.73    
   12922.39    
   12923.04    
   12923.70    
   12924.35    
   12925.01    
   12925.67    
   12926.32    
   12926.98    
   12927.63    
   12928.29    
   12928.94    
   12929.60    
   12930.25    
   12930.91    
   12931.56    
   12932.22    
   12932.87    
   12933.53    
   12934.18    
   12934.84    
   12935.50    
   12936.15    
   12936.81    
   12937.46    
   12938.12    
   12938.77    
   12939.43    
   12940.08    
   12940.74    
   12941.39    
   12942.05    
   12942.70    
   12943.36    
   12944.01    
   12944.67    
   12945.33    
   12945.98    
   12946.64    
   12947.29    
   12947.95    
   12948.60    
   12949.26    
   12949.91    
   12950.57    
   12951.22    
   12951.88    
   12952.54    
   12953.19    
   12953.85    
   12954.50    
   12955.16    
   12955.81    
   12956.47    
   12957.12    
   12957.78    
   12958.43    
   12959.09    
   12959.74    
   12960.40    
   12961.05    
   12961.71    
   12962.37    
   12963.02    
   12963.68    
   12964.33    
   12964.99    
   12965.64    
   12966.30    
   12966.95    
   12967.61    
   12968.26    
   12968.92    
   12969.57    
   12970.23    
   12970.88    
   12971.54    
   12972.20    
   12972.85    
   12973.51    
   12974.16    
   12974.82    
   12975.47    
   12976.13    
   12976.78    
   12977.44    
   12978.09    
   12978.75    
   12979.40    
   12980.06    
   12980.71    
   12981.37    
   12982.03    
   12982.68    
   12983.34    
   12983.99    
   12984.65    
   12985.30    
   12985.96    
   12986.61    
   12987.27    
   12987.92    
   12988.58    
   12989.24    
   12989.89    
   12990.55    
   12991.20    
   12991.86    
   12992.51    
   12993.17    
   12993.82    
   12994.48    
   12995.13    
   12995.79    
   12996.44    
   12997.10    
   12997.75    
   12998.41    
   12999.07    
   12999.72    
   13000.38    
   13001.03    
   13001.69    
   13002.34    
   13003.00    
   13003.65    
   13004.31    
   13004.96    
   13005.62    
   13006.27    
   13006.93    
   13007.58    
   13008.24    
   13008.90    
   13009.55    
   13010.21    
   13010.86    
   13011.52    
   13012.17    
   13012.83    
   13013.48    
   13014.14    
   13014.79    
   13015.45    
   13016.10    
   13016.76    
   13017.42    
   13018.07    
   13018.73    
   13019.38    
   13020.04    
   13020.69    
   13021.35    
   13022.00    
   13022.66    
   13023.31    
   13023.97    
   13024.62    
   13025.28    
   13025.93    
   13026.59    
   13027.25    
   13027.90    
   13028.56    
   13029.21    
   13029.87    
   13030.52    
   13031.18    
   13031.83    
   13032.49    
   13033.14    
   13033.80    
   13034.46    
   13035.11    
   13035.77    
   13036.42    
   13037.08    
   13037.73    
   13038.39    
   13039.04    
   13039.70    
   13040.35    
   13041.01    
   13041.66    
   13042.32    
   13042.97    
   13043.63    
   13044.29    
   13044.94    
   13045.60    
   13046.25    
   13046.91    
   13047.56    
   13048.22    
   13048.87    
   13049.53    
   13050.18    
   13050.84    
   13051.49    
   13052.15    
   13052.80    
   13053.46    
   13054.12    
   13054.77    
   13055.43    
   13056.08    
   13056.74    
   13057.39    
   13058.05    
   13058.70    
   13059.36    
   13060.01    
   13060.67    
   13061.32    
   13061.98    
   13062.63    
   13063.29    
   13063.95    
   13064.60    
   13065.26    
   13065.91    
   13066.57    
   13067.22    
   13067.88    
   13068.53    
   13069.19    
   13069.84    
   13070.50    
   13071.16    
   13071.81    
   13072.47    
   13073.12    
   13073.78    
   13074.43    
   13075.09    
   13075.74    
   13076.40    
   13077.05    
   13077.71    
   13078.36    
   13079.02    
   13079.67    
   13080.33    
   13080.99    
   13081.64    
   13082.30    
   13082.95    
   13083.61    
   13084.26    
   13084.92    
   13085.57    
   13086.23    
   13086.88    
   13087.54    
   13088.19    
   13088.85    
   13089.50    
   13090.16    
   13090.82    
   13091.47    
   13092.13    
   13092.78    
   13093.44    
   13094.09    
   13094.75    
   13095.40    
   13096.06    
   13096.71    
   13097.37    
   13098.02    
   13098.68    
   13099.33    
   13099.99    
   13100.65    
   13101.30    
   13101.96    
   13102.61    
   13103.27    
   13103.92    
   13104.58    
   13105.23    
   13105.89    
   13106.54    
   13107.20    
0
