---Stopping/Range Input Data (Number-format: Period = Decimal Point) 
---Output File Name                                                  
"sr.out"
---Ion(Z), Ion Mass(u)                                               
2   4.003
---Target Data: (Solid=0,Gas=1), Density(g/cm3), Compound Corr.      
0    1.74    0
---Number of Target Elements                                         
1
---Target Elements: (Z), Target name, Stoich, Target Mass(u)         
12                 "Magnesium" 100             24.305
---Output Stopping Units (1-8)                                       
7
---Ion Energy : E-Min(keV), E-Max(keV)                               
0 0
   1556.562    
   1556.644    
   1556.726    
   1556.808    
   1556.890    
   1556.971    
   1557.053    
   1557.135    
   1557.217    
   1557.299    
   1557.381    
   1557.463    
   1557.545    
   1557.627    
   1557.709    
   1557.791    
   1557.873    
   1557.954    
   1558.036    
   1558.118    
   1558.200    
   1558.282    
   1558.364    
   1558.446    
   1558.528    
   1558.610    
   1558.692    
   1558.774    
   1558.856    
   1558.938    
   1559.020    
   1559.101    
   1559.183    
   1559.265    
   1559.347    
   1559.429    
   1559.511    
   1559.593    
   1559.675    
   1559.757    
   1559.839    
   1559.921    
   1560.003    
   1560.084    
   1560.166    
   1560.248    
   1560.330    
   1560.412    
   1560.494    
   1560.576    
   1560.658    
   1560.740    
   1560.822    
   1560.904    
   1560.986    
   1561.068    
   1561.149    
   1561.231    
   1561.313    
   1561.395    
   1561.477    
   1561.559    
   1561.641    
   1561.723    
   1561.805    
   1561.887    
   1561.969    
   1562.051    
   1562.132    
   1562.214    
   1562.296    
   1562.378    
   1562.460    
   1562.542    
   1562.624    
   1562.706    
   1562.788    
   1562.870    
   1562.952    
   1563.034    
   1563.115    
   1563.197    
   1563.279    
   1563.361    
   1563.443    
   1563.525    
   1563.607    
   1563.689    
   1563.771    
   1563.853    
   1563.935    
   1564.017    
   1564.099    
   1564.180    
   1564.262    
   1564.344    
   1564.426    
   1564.508    
   1564.590    
   1564.672    
   1564.754    
   1564.836    
   1564.918    
   1565.000    
   1565.082    
   1565.163    
   1565.245    
   1565.327    
   1565.409    
   1565.491    
   1565.573    
   1565.655    
   1565.737    
   1565.819    
   1565.901    
   1565.983    
   1566.065    
   1566.146    
   1566.228    
   1566.310    
   1566.392    
   1566.474    
   1566.556    
   1566.638    
   1566.720    
   1566.802    
   1566.884    
   1566.966    
   1567.048    
   1567.130    
   1567.211    
   1567.293    
   1567.375    
   1567.457    
   1567.539    
   1567.621    
   1567.703    
   1567.785    
   1567.867    
   1567.949    
   1568.031    
   1568.113    
   1568.195    
   1568.276    
   1568.358    
   1568.440    
   1568.522    
   1568.604    
   1568.686    
   1568.768    
   1568.850    
   1568.932    
   1569.014    
   1569.096    
   1569.178    
   1569.260    
   1569.341    
   1569.423    
   1569.505    
   1569.587    
   1569.669    
   1569.751    
   1569.833    
   1569.915    
   1569.997    
   1570.079    
   1570.161    
   1570.243    
   1570.324    
   1570.406    
   1570.488    
   1570.570    
   1570.652    
   1570.734    
   1570.816    
   1570.898    
   1570.980    
   1571.062    
   1571.144    
   1571.226    
   1571.307    
   1571.389    
   1571.471    
   1571.553    
   1571.635    
   1571.717    
   1571.799    
   1571.881    
   1571.963    
   1572.045    
   1572.127    
   1572.209    
   1572.291    
   1572.372    
   1572.454    
   1572.536    
   1572.618    
   1572.700    
   1572.782    
   1572.864    
   1572.946    
   1573.028    
   1573.110    
   1573.192    
   1573.274    
   1573.355    
   1573.437    
   1573.519    
   1573.601    
   1573.683    
   1573.765    
   1573.847    
   1573.929    
   1574.011    
   1574.093    
   1574.175    
   1574.257    
   1574.339    
   1574.420    
   1574.502    
   1574.584    
   1574.666    
   1574.748    
   1574.830    
   1574.912    
   1574.994    
   1575.076    
   1575.158    
   1575.240    
   1575.322    
   1575.403    
   1575.485    
   1575.567    
   1575.649    
   1575.731    
   1575.813    
   1575.895    
   1575.977    
   1576.059    
   1576.141    
   1576.223    
   1576.305    
   1576.386    
   1576.468    
   1576.550    
   1576.632    
   1576.714    
   1576.796    
   1576.878    
   1576.960    
   1577.042    
   1577.124    
   1577.206    
   1577.288    
   1577.370    
   1577.452    
   1577.533    
   1577.615    
   1577.697    
   1577.779    
   1577.861    
   1577.943    
   1578.025    
   1578.107    
   1578.189    
   1578.271    
   1578.353    
   1578.435    
   1578.516    
   1578.598    
   1578.680    
   1578.762    
   1578.844    
   1578.926    
   1579.008    
   1579.090    
   1579.172    
   1579.254    
   1579.336    
   1579.418    
   1579.500    
   1579.581    
   1579.663    
   1579.745    
   1579.827    
   1579.909    
   1579.991    
   1580.073    
   1580.155    
   1580.237    
   1580.319    
   1580.401    
   1580.483    
   1580.564    
   1580.646    
   1580.728    
   1580.810    
   1580.892    
   1580.974    
   1581.056    
   1581.138    
   1581.220    
   1581.302    
   1581.384    
   1581.466    
   1581.547    
   1581.629    
   1581.711    
   1581.793    
   1581.875    
   1581.957    
   1582.039    
   1582.121    
   1582.203    
   1582.285    
   1582.367    
   1582.449    
   1582.531    
   1582.612    
   1582.694    
   1582.776    
   1582.858    
   1582.940    
   1583.022    
   1583.104    
   1583.186    
   1583.268    
   1583.350    
   1583.432    
   1583.514    
   1583.595    
   1583.677    
   1583.759    
   1583.841    
   1583.923    
   1584.005    
   1584.087    
   1584.169    
   1584.251    
   1584.333    
   1584.415    
   1584.497    
   1584.578    
   1584.660    
   1584.742    
   1584.824    
   1584.906    
   1584.988    
   1585.070    
   1585.152    
   1585.234    
   1585.316    
   1585.398    
   1585.480    
   1585.562    
   1585.643    
   1585.725    
   1585.807    
   1585.889    
   1585.971    
   1586.053    
   1586.135    
   1586.217    
   1586.299    
   1586.381    
   1586.463    
   1586.545    
   1586.626    
   1586.708    
   1586.790    
   1586.872    
   1586.954    
   1587.036    
   1587.118    
   1587.200    
   1587.282    
   1587.364    
   1587.446    
   1587.528    
   1587.610    
   1587.692    
   1587.773    
   1587.855    
   1587.937    
   1588.019    
   1588.101    
   1588.183    
   1588.265    
   1588.347    
   1588.429    
   1588.511    
   1588.593    
   1588.675    
   1588.756    
   1588.838    
   1588.920    
   1589.002    
   1589.084    
   1589.166    
   1589.248    
   1589.330    
   1589.412    
   1589.494    
   1589.576    
   1589.658    
   1589.740    
   1589.821    
   1589.903    
   1589.985    
   1590.067    
   1590.149    
   1590.231    
   1590.313    
   1590.395    
   1590.477    
   1590.559    
   1590.641    
   1590.723    
   1590.804    
   1590.886    
   1590.968    
   1591.050    
   1591.132    
   1591.214    
   1591.296    
   1591.378    
   1591.460    
   1591.542    
   1591.624    
   1591.706    
   1591.787    
   1591.869    
   1591.951    
   1592.033    
   1592.115    
   1592.197    
   1592.279    
   1592.361    
   1592.443    
   1592.525    
   1592.607    
   1592.689    
   1592.771    
   1592.852    
   1592.934    
   1593.016    
   1593.098    
   1593.180    
   1593.262    
   1593.344    
   1593.426    
   1593.508    
   1593.590    
   1593.672    
   1593.754    
   1593.835    
   1593.917    
   1593.999    
   1594.081    
   1594.163    
   1594.245    
   1594.327    
   1594.409    
   1594.491    
   1594.573    
   1594.655    
   1594.737    
   1594.818    
   1594.900    
   1594.982    
   1595.064    
   1595.146    
   1595.228    
   1595.310    
   1595.392    
   1595.474    
   1595.556    
   1595.638    
   1595.720    
   1595.802    
   1595.883    
   1595.965    
   1596.047    
   1596.129    
   1596.211    
   1596.293    
   1596.375    
   1596.457    
   1596.539    
   1596.621    
   1596.703    
   1596.785    
   1596.867    
   1596.948    
   1597.030    
   1597.112    
   1597.194    
   1597.276    
   1597.358    
   1597.440    
   1597.522    
   1597.604    
   1597.686    
   1597.768    
   1597.850    
   1597.932    
   1598.013    
   1598.095    
   1598.177    
   1598.259    
   1598.341    
   1598.423    
   1598.505    
   1598.587    
   1598.669    
   1598.751    
   1598.833    
   1598.915    
   1598.996    
   1599.078    
   1599.160    
   1599.242    
   1599.324    
   1599.406    
   1599.488    
   1599.570    
   1599.652    
   1599.734    
   1599.816    
   1599.898    
   1599.979    
   1600.061    
   1600.143    
   1600.225    
   1600.307    
   1600.389    
   1600.471    
   1600.553    
   1600.635    
   1600.717    
   1600.799    
   1600.881    
   1600.963    
   1601.044    
   1601.126    
   1601.208    
   1601.290    
   1601.372    
   1601.454    
   1601.536    
   1601.618    
   1601.700    
   1601.782    
   1601.864    
   1601.946    
   1602.027    
   1602.109    
   1602.191    
   1602.273    
   1602.355    
   1602.437    
   1602.519    
   1602.601    
   1602.683    
   1602.765    
   1602.847    
   1602.929    
   1603.010    
   1603.092    
   1603.174    
   1603.256    
   1603.338    
   1603.420    
   1603.502    
   1603.584    
   1603.666    
   1603.748    
   1603.830    
   1603.912    
   1603.994    
   1604.075    
   1604.157    
   1604.239    
   1604.321    
   1604.403    
   1604.485    
   1604.567    
   1604.649    
   1604.731    
   1604.813    
   1604.895    
   1604.977    
   1605.058    
   1605.140    
   1605.222    
   1605.304    
   1605.386    
   1605.468    
   1605.550    
   1605.632    
   1605.714    
   1605.796    
   1605.878    
   1605.960    
   1606.042    
   1606.124    
   1606.205    
   1606.287    
   1606.369    
   1606.451    
   1606.533    
   1606.615    
   1606.697    
   1606.779    
   1606.861    
   1606.943    
   1607.025    
   1607.107    
   1607.188    
   1607.270    
   1607.352    
   1607.434    
   1607.516    
   1607.598    
   1607.680    
   1607.762    
   1607.844    
   1607.926    
   1608.008    
   1608.090    
   1608.172    
   1608.253    
   1608.335    
   1608.417    
   1608.499    
   1608.581    
   1608.663    
   1608.745    
   1608.827    
   1608.909    
   1608.991    
   1609.073    
   1609.155    
   1609.236    
   1609.318    
   1609.400    
   1609.482    
   1609.564    
   1609.646    
   1609.728    
   1609.810    
   1609.892    
   1609.974    
   1610.056    
   1610.138    
   1610.219    
   1610.301    
   1610.383    
   1610.465    
   1610.547    
   1610.629    
   1610.711    
   1610.793    
   1610.875    
   1610.957    
   1611.039    
   1611.121    
   1611.203    
   1611.284    
   1611.366    
   1611.448    
   1611.530    
   1611.612    
   1611.694    
   1611.776    
   1611.858    
   1611.940    
   1612.022    
   1612.104    
   1612.186    
   1612.267    
   1612.349    
   1612.431    
   1612.513    
   1612.595    
   1612.677    
   1612.759    
   1612.841    
   1612.923    
   1613.005    
   1613.087    
   1613.169    
   1613.250    
   1613.332    
   1613.414    
   1613.496    
   1613.578    
   1613.660    
   1613.742    
   1613.824    
   1613.906    
   1613.988    
   1614.070    
   1614.152    
   1614.234    
   1614.315    
   1614.397    
   1614.479    
   1614.561    
   1614.643    
   1614.725    
   1614.807    
   1614.889    
   1614.971    
   1615.053    
   1615.135    
   1615.217    
   1615.298    
   1615.380    
   1615.462    
   1615.544    
   1615.626    
   1615.708    
   1615.790    
   1615.872    
   1615.954    
   1616.036    
   1616.118    
   1616.200    
   1616.282    
   1616.364    
   1616.445    
   1616.527    
   1616.609    
   1616.691    
   1616.773    
   1616.855    
   1616.937    
   1617.019    
   1617.101    
   1617.183    
   1617.265    
   1617.347    
   1617.428    
   1617.510    
   1617.592    
   1617.674    
   1617.756    
   1617.838    
   1617.920    
   1618.002    
   1618.084    
   1618.166    
   1618.248    
   1618.330    
   1618.411    
   1618.493    
   1618.575    
   1618.657    
   1618.739    
   1618.821    
   1618.903    
   1618.985    
   1619.067    
   1619.149    
   1619.231    
   1619.313    
   1619.395    
   1619.476    
   1619.558    
   1619.640    
   1619.722    
   1619.804    
   1619.886    
   1619.968    
   1620.050    
   1620.132    
   1620.214    
   1620.296    
   1620.378    
   1620.459    
   1620.541    
   1620.623    
   1620.705    
   1620.787    
   1620.869    
   1620.951    
   1621.033    
   1621.115    
   1621.197    
   1621.279    
   1621.361    
   1621.443    
   1621.524    
   1621.606    
   1621.688    
   1621.770    
   1621.852    
   1621.934    
   1622.016    
   1622.098    
   1622.180    
   1622.262    
   1622.344    
   1622.426    
   1622.507    
   1622.589    
   1622.671    
   1622.753    
   1622.835    
   1622.917    
   1622.999    
   1623.081    
   1623.163    
   1623.245    
   1623.327    
   1623.409    
   1623.490    
   1623.572    
   1623.654    
   1623.736    
   1623.818    
   1623.900    
   1623.982    
   1624.064    
   1624.146    
   1624.228    
   1624.310    
   1624.392    
   1624.474    
   1624.555    
   1624.637    
   1624.719    
   1624.801    
   1624.883    
   1624.965    
   1625.047    
   1625.129    
   1625.211    
   1625.293    
   1625.375    
   1625.457    
   1625.539    
   1625.620    
   1625.702    
   1625.784    
   1625.866    
   1625.948    
   1626.030    
   1626.112    
   1626.194    
   1626.276    
   1626.358    
   1626.440    
   1626.522    
   1626.604    
   1626.685    
   1626.767    
   1626.849    
   1626.931    
   1627.013    
   1627.095    
   1627.177    
   1627.259    
   1627.341    
   1627.423    
   1627.505    
   1627.587    
   1627.668    
   1627.750    
   1627.832    
   1627.914    
   1627.996    
   1628.078    
   1628.160    
   1628.242    
   1628.324    
   1628.406    
   1628.488    
   1628.570    
   1628.651    
   1628.733    
   1628.815    
   1628.897    
   1628.979    
   1629.061    
   1629.143    
   1629.225    
   1629.307    
   1629.389    
   1629.471    
   1629.553    
   1629.635    
   1629.716    
   1629.798    
   1629.880    
   1629.962    
   1630.044    
   1630.126    
   1630.208    
   1630.290    
   1630.372    
   1630.454    
   1630.536    
   1630.618    
   1630.699    
   1630.781    
   1630.863    
   1630.945    
   1631.027    
   1631.109    
   1631.191    
   1631.273    
   1631.355    
   1631.437    
   1631.519    
   1631.601    
   1631.682    
   1631.764    
   1631.846    
   1631.928    
   1632.010    
   1632.092    
   1632.174    
   1632.256    
   1632.338    
   1632.420    
   1632.502    
   1632.584    
   1632.666    
   1632.747    
   1632.829    
   1632.911    
   1632.993    
   1633.075    
   1633.157    
   1633.239    
   1633.321    
   1633.403    
   1633.485    
   1633.567    
   1633.649    
   1633.730    
   1633.812    
   1633.894    
   1633.976    
   1634.058    
   1634.140    
   1634.222    
   1634.304    
   1634.386    
   1634.468    
   1634.550    
   1634.632    
   1634.714    
   1634.796    
   1634.877    
   1634.959    
   1635.041    
   1635.123    
   1635.205    
   1635.287    
   1635.369    
   1635.451    
   1635.533    
   1635.615    
   1635.697    
   1635.779    
   1635.860    
   1635.942    
   1636.024    
   1636.106    
   1636.188    
   1636.270    
   1636.352    
   1636.434    
   1636.516    
   1636.598    
   1636.680    
   1636.762    
   1636.844    
   1636.925    
   1637.007    
   1637.089    
   1637.171    
   1637.253    
   1637.335    
   1637.417    
   1637.499    
   1637.581    
   1637.663    
   1637.745    
   1637.827    
   1637.908    
   1637.990    
   1638.072    
   1638.154    
   1638.236    
   1638.318    
   1638.400    
0
